y(keV/um)    e-           Hprim            Hsec            He           Li           Be           B            C            Other        Total[yd(y)]
1.0610e-01   0.0000e+00   0.0000e+00   0.0000e+00   0.0000e+00   0.0000e+00   0.0000e+00   0.0000e+00   0.0000e+00   0.0000e+00   0.0000e+00   
1.1905e-01   0.0000e+00   0.0000e+00   0.0000e+00   0.0000e+00   0.0000e+00   0.0000e+00   0.0000e+00   0.0000e+00   0.0000e+00   0.0000e+00   
1.3357e-01   0.0000e+00   0.0000e+00   0.0000e+00   0.0000e+00   0.0000e+00   0.0000e+00   0.0000e+00   0.0000e+00   0.0000e+00   0.0000e+00   
1.4987e-01   0.0000e+00   0.0000e+00   0.0000e+00   0.0000e+00   0.0000e+00   0.0000e+00   0.0000e+00   0.0000e+00   0.0000e+00   0.0000e+00   
1.6816e-01   0.0000e+00   0.0000e+00   0.0000e+00   0.0000e+00   0.0000e+00   0.0000e+00   0.0000e+00   0.0000e+00   0.0000e+00   0.0000e+00   
1.8868e-01   0.0000e+00   0.0000e+00   0.0000e+00   0.0000e+00   0.0000e+00   0.0000e+00   0.0000e+00   0.0000e+00   0.0000e+00   0.0000e+00   
2.1170e-01   0.0000e+00   0.0000e+00   0.0000e+00   0.0000e+00   0.0000e+00   0.0000e+00   0.0000e+00   0.0000e+00   0.0000e+00   0.0000e+00   
2.3753e-01   0.0000e+00   0.0000e+00   0.0000e+00   0.0000e+00   0.0000e+00   0.0000e+00   0.0000e+00   0.0000e+00   0.0000e+00   0.0000e+00   
2.6651e-01   0.0000e+00   0.0000e+00   0.0000e+00   0.0000e+00   0.0000e+00   0.0000e+00   0.0000e+00   0.0000e+00   0.0000e+00   0.0000e+00   
2.9903e-01   2.8498e-06   0.0000e+00   4.0601e-05   3.6977e-06   4.0880e-09   0.0000e+00   0.0000e+00   0.0000e+00   1.0096e-06   4.8163e-05   
3.3552e-01   7.5593e-06   0.0000e+00   9.9492e-05   1.1350e-05   7.0949e-09   0.0000e+00   0.0000e+00   0.0000e+00   2.3572e-06   1.2077e-04   
3.7646e-01   8.8712e-06   0.0000e+00   1.1226e-04   1.5068e-05   2.0272e-08   0.0000e+00   0.0000e+00   0.0000e+00   3.2209e-06   1.3944e-04   
4.2240e-01   1.1136e-05   0.0000e+00   1.2431e-04   2.1826e-05   2.2479e-08   0.0000e+00   0.0000e+00   0.0000e+00   3.1791e-06   1.6048e-04   
4.7394e-01   1.3973e-05   0.0000e+00   1.3959e-04   3.1898e-05   4.8228e-08   0.0000e+00   0.0000e+00   0.0000e+00   3.6410e-06   1.8915e-04   
5.3176e-01   1.6855e-05   0.0000e+00   1.5423e-04   4.5924e-05   6.9453e-08   0.0000e+00   0.0000e+00   0.0000e+00   4.2095e-06   2.2129e-04   
5.9665e-01   2.2187e-05   0.0000e+00   1.7054e-04   6.4770e-05   1.6227e-07   0.0000e+00   0.0000e+00   0.0000e+00   4.7587e-06   2.6242e-04   
6.6945e-01   2.9380e-05   0.0000e+00   1.9056e-04   9.2114e-05   1.9717e-07   0.0000e+00   0.0000e+00   0.0000e+00   4.9429e-06   3.1719e-04   
7.5114e-01   3.8176e-05   0.0000e+00   2.0705e-04   1.3003e-04   4.4081e-07   1.0643e-08   0.0000e+00   0.0000e+00   6.0213e-06   3.8174e-04   
8.4279e-01   5.0098e-05   0.0000e+00   2.2528e-04   1.8254e-04   5.6582e-07   8.7176e-09   0.0000e+00   0.0000e+00   6.4241e-06   4.6491e-04   
9.4563e-01   6.6283e-05   0.0000e+00   2.3798e-04   2.5519e-04   7.4262e-07   9.3055e-09   4.1844e-09   0.0000e+00   7.1472e-06   5.6735e-04   
1.0610e+00   8.5582e-05   0.0000e+00   2.4593e-04   3.4814e-04   1.3683e-06   1.4196e-08   0.0000e+00   0.0000e+00   7.6297e-06   6.8867e-04   
1.1905e+00   1.0926e-04   0.0000e+00   2.5337e-04   4.6452e-04   1.8277e-06   1.5381e-08   0.0000e+00   1.6189e-08   9.7664e-06   8.3877e-04   
1.3357e+00   1.3917e-04   0.0000e+00   2.5861e-04   6.0476e-04   2.6785e-06   6.4258e-08   0.0000e+00   0.0000e+00   1.2007e-05   1.0173e-03   
1.4987e+00   1.7733e-04   0.0000e+00   2.6855e-04   7.6539e-04   4.9136e-06   1.0994e-07   0.0000e+00   0.0000e+00   1.4178e-05   1.2305e-03   
1.6816e+00   2.2447e-04   0.0000e+00   2.7950e-04   9.2854e-04   6.8693e-06   2.6983e-07   0.0000e+00   2.3628e-08   2.0354e-05   1.4600e-03   
1.8868e+00   2.8158e-04   0.0000e+00   2.8836e-04   1.0938e-03   1.1280e-05   4.4720e-07   5.3344e-08   0.0000e+00   2.8196e-05   1.7038e-03   
2.1170e+00   3.5288e-04   0.0000e+00   3.0171e-04   1.2531e-03   1.6599e-05   6.2767e-07   5.6825e-08   0.0000e+00   4.1151e-05   1.9661e-03   
2.3753e+00   4.3628e-04   0.0000e+00   3.1887e-04   1.3835e-03   2.8588e-05   1.2006e-06   2.9077e-07   5.2124e-08   6.0134e-05   2.2289e-03   
2.6651e+00   5.2502e-04   0.0000e+00   3.4022e-04   1.4654e-03   3.9702e-05   2.5833e-06   1.1108e-07   0.0000e+00   8.8532e-05   2.4615e-03   
2.9903e+00   6.3185e-04   0.0000e+00   3.5829e-04   1.5554e-03   5.7934e-05   3.8346e-06   5.1584e-07   4.0435e-08   1.3563e-04   2.7435e-03   
3.3552e+00   7.3660e-04   0.0000e+00   3.7239e-04   1.6231e-03   8.3179e-05   6.6808e-06   1.4962e-06   8.7930e-08   1.9573e-04   3.0192e-03   
3.7646e+00   8.4995e-04   0.0000e+00   3.8910e-04   1.6856e-03   1.1579e-04   1.2723e-05   1.5441e-06   5.0234e-08   2.7067e-04   3.3254e-03   
4.2240e+00   9.8294e-04   0.0000e+00   4.1693e-04   1.7549e-03   1.5450e-04   2.1489e-05   4.4388e-06   1.1710e-07   3.6904e-04   3.7043e-03   
4.7394e+00   1.1157e-03   0.0000e+00   4.2386e-04   1.8423e-03   1.7495e-04   3.3506e-05   8.6990e-06   0.0000e+00   4.7163e-04   4.0706e-03   
5.3176e+00   1.2442e-03   0.0000e+00   4.4870e-04   1.9172e-03   2.0439e-04   5.5015e-05   1.6886e-05   7.4268e-08   6.0394e-04   4.4904e-03   
5.9665e+00   1.4136e-03   0.0000e+00   4.6983e-04   2.0175e-03   2.2309e-04   8.7808e-05   2.9658e-05   8.6001e-08   7.4245e-04   4.9840e-03   
6.6945e+00   1.5846e-03   0.0000e+00   4.9175e-04   2.1003e-03   2.3957e-04   1.3673e-04   5.7868e-05   2.8246e-07   9.0164e-04   5.5127e-03   
7.5114e+00   1.7403e-03   0.0000e+00   5.0163e-04   2.1947e-03   2.5638e-04   2.0871e-04   1.0429e-04   2.0481e-07   1.1056e-03   6.1118e-03   
8.4279e+00   1.9187e-03   0.0000e+00   5.0977e-04   2.2721e-03   2.6132e-04   3.1630e-04   1.9405e-04   7.7561e-07   1.3024e-03   6.7754e-03   
9.4563e+00   2.1345e-03   0.0000e+00   5.3095e-04   2.3794e-03   2.6531e-04   4.4018e-04   3.1834e-04   1.3610e-07   1.5679e-03   7.6367e-03   
1.0610e+01   2.3426e-03   0.0000e+00   5.4203e-04   2.4432e-03   2.6469e-04   5.8022e-04   5.4416e-04   7.2754e-07   1.8237e-03   8.5413e-03   
1.1905e+01   2.5893e-03   0.0000e+00   5.4967e-04   2.4602e-03   2.7334e-04   7.2950e-04   9.1863e-04   4.1216e-07   2.0181e-03   9.5392e-03   
1.3357e+01   2.8891e-03   0.0000e+00   5.3638e-04   2.4689e-03   2.6581e-04   8.5712e-04   1.5654e-03   1.2702e-06   2.2122e-03   1.0796e-02   
1.4987e+01   3.2124e-03   0.0000e+00   5.3981e-04   2.4579e-03   2.6217e-04   9.2772e-04   2.5578e-03   3.1270e-06   2.3176e-03   1.2279e-02   
1.6816e+01   3.6536e-03   0.0000e+00   5.2583e-04   2.4475e-03   2.7526e-04   9.9695e-04   3.8305e-03   3.0704e-06   2.4352e-03   1.4168e-02   
1.8868e+01   4.1260e-03   0.0000e+00   5.0024e-04   2.3949e-03   2.4364e-04   1.0671e-03   5.3651e-03   3.0995e-06   2.4861e-03   1.6186e-02   
2.1170e+01   4.5905e-03   0.0000e+00   4.8528e-04   2.3955e-03   2.3918e-04   1.1121e-03   6.6891e-03   2.6322e-06   2.5401e-03   1.8054e-02   
2.3753e+01   4.9651e-03   0.0000e+00   4.7228e-04   2.4351e-03   2.0421e-04   1.1027e-03   7.7186e-03   6.7317e-06   2.5274e-03   1.9432e-02   
2.6651e+01   5.2245e-03   0.0000e+00   4.7571e-04   2.5187e-03   1.5811e-04   1.0734e-03   8.3310e-03   1.3456e-05   2.4031e-03   2.0198e-02   
2.9903e+01   5.3248e-03   0.0000e+00   4.7229e-04   2.7246e-03   1.1282e-04   9.5632e-04   8.5636e-03   1.2210e-05   2.2973e-03   2.0464e-02   
3.3552e+01   5.1328e-03   0.0000e+00   4.7679e-04   2.9130e-03   9.9920e-05   9.1158e-04   8.1034e-03   1.6918e-05   2.0666e-03   1.9721e-02   
3.7646e+01   4.7517e-03   0.0000e+00   4.7487e-04   3.1362e-03   8.7987e-05   8.4470e-04   7.1093e-03   3.0727e-05   1.9317e-03   1.8367e-02   
4.2240e+01   4.3378e-03   0.0000e+00   4.8983e-04   3.2898e-03   7.8395e-05   8.3449e-04   6.2572e-03   4.0225e-05   1.9703e-03   1.7298e-02   
4.7394e+01   4.0651e-03   0.0000e+00   4.6417e-04   3.1156e-03   6.0333e-05   8.7582e-04   6.3986e-03   1.5497e-04   1.9738e-03   1.7108e-02   
5.3176e+01   4.0690e-03   0.0000e+00   4.3542e-04   2.6758e-03   3.6627e-05   8.9686e-04   7.0043e-03   5.9205e-04   1.9926e-03   1.7703e-02   
5.9665e+01   4.6580e-03   0.0000e+00   3.8981e-04   2.1671e-03   4.0129e-05   8.1916e-04   7.5043e-03   2.7622e-03   2.0503e-03   2.0391e-02   
6.6945e+01   7.0358e-03   0.0000e+00   3.4773e-04   1.7439e-03   3.0249e-05   8.1569e-04   7.2598e-03   1.0971e-02   2.0355e-03   3.0240e-02   
7.5114e+01   1.5759e-02   0.0000e+00   3.3335e-04   1.4132e-03   2.7284e-05   6.4614e-04   6.6906e-03   3.9566e-02   2.1334e-03   6.6568e-02   
8.4279e+01   3.9634e-02   0.0000e+00   3.0951e-04   1.2971e-03   3.2014e-05   5.5908e-04   5.9869e-03   1.1805e-01   2.0820e-03   1.6795e-01   
9.4563e+01   9.0108e-02   0.0000e+00   3.0448e-04   1.2124e-03   2.7227e-05   4.5911e-04   5.0484e-03   2.8831e-01   2.0196e-03   3.8749e-01   
1.0610e+02   1.6859e-01   0.0000e+00   2.4320e-04   1.0485e-03   4.4226e-05   3.7250e-04   4.3174e-03   5.5915e-01   1.8241e-03   7.3560e-01   
1.1905e+02   2.4896e-01   0.0000e+00   2.3403e-04   1.0310e-03   4.1200e-05   3.0151e-04   3.6746e-03   8.4377e-01   1.4742e-03   1.0995e+00   
1.3357e+02   2.8602e-01   0.0000e+00   2.0665e-04   9.2099e-04   4.7251e-05   3.0291e-04   3.0196e-03   9.8258e-01   1.3332e-03   1.2744e+00   
1.4987e+02   2.6254e-01   0.0000e+00   1.6848e-04   8.1335e-04   5.7273e-05   2.3376e-04   2.4310e-03   9.0884e-01   1.1990e-03   1.1763e+00   
1.6816e+02   2.0104e-01   0.0000e+00   1.4677e-04   8.5414e-04   6.6325e-05   2.4238e-04   1.9904e-03   6.9910e-01   1.0955e-03   9.0454e-01   
1.8868e+02   1.3825e-01   0.0000e+00   1.1685e-04   7.1458e-04   5.9447e-05   2.0513e-04   1.6857e-03   4.8429e-01   1.0310e-03   6.2635e-01   
2.1170e+02   9.3965e-02   0.0000e+00   9.9862e-05   6.7079e-04   5.8746e-05   2.0967e-04   1.4101e-03   3.3376e-01   9.2248e-04   4.3109e-01   
2.3753e+02   6.5108e-02   0.0000e+00   8.1499e-05   5.4495e-04   5.9335e-05   2.0408e-04   1.2180e-03   2.3572e-01   7.6607e-04   3.0370e-01   
2.6651e+02   4.6791e-02   0.0000e+00   7.1337e-05   5.1430e-04   5.9305e-05   1.9849e-04   1.1213e-03   1.7187e-01   7.7423e-04   2.2140e-01   
2.9903e+02   3.5635e-02   0.0000e+00   7.1725e-05   5.0130e-04   5.4433e-05   2.0232e-04   8.7606e-04   1.3230e-01   7.8470e-04   1.7042e-01   
3.3552e+02   2.8307e-02   0.0000e+00   5.1740e-05   4.7036e-04   6.5632e-05   1.7753e-04   9.2382e-04   1.0554e-01   7.0608e-04   1.3624e-01   
3.7646e+02   2.3234e-02   0.0000e+00   5.2822e-05   3.0201e-04   3.8481e-05   1.7008e-04   8.9783e-04   8.7473e-02   8.2036e-04   1.1299e-01   
4.2240e+02   1.9222e-02   0.0000e+00   4.5018e-05   2.2306e-04   5.9740e-05   1.2091e-04   8.0363e-04   7.4336e-02   7.3957e-04   9.5550e-02   
4.7394e+02   1.6635e-02   0.0000e+00   4.7957e-05   2.0161e-04   4.9055e-05   1.9426e-04   7.9819e-04   6.6212e-02   9.4521e-04   8.5083e-02   
5.3176e+02   1.3759e-02   0.0000e+00   3.8854e-05   1.2423e-04   3.7164e-05   1.5244e-04   7.7513e-04   5.7665e-02   9.0255e-04   7.3454e-02   
5.9665e+02   1.1497e-02   0.0000e+00   3.9689e-05   1.1436e-04   3.7257e-05   8.9610e-05   7.3006e-04   5.1431e-02   1.1207e-03   6.5060e-02   
6.6945e+02   9.5376e-03   0.0000e+00   3.5650e-05   1.1635e-04   2.6084e-05   1.1771e-04   5.9940e-04   4.6508e-02   1.2172e-03   5.8158e-02   
7.5114e+02   7.4748e-03   0.0000e+00   3.4470e-05   9.3768e-05   1.3175e-05   1.1002e-04   5.2261e-04   4.2154e-02   1.2212e-03   5.1624e-02   
8.4279e+02   5.6203e-03   0.0000e+00   2.3776e-05   7.1444e-05   4.0636e-06   2.9616e-05   5.1243e-04   3.9448e-02   1.0665e-03   4.6777e-02   
9.4563e+02   4.1515e-03   0.0000e+00   2.1855e-05   5.7796e-05   5.5167e-06   4.5911e-05   6.3753e-04   3.9678e-02   1.3121e-03   4.5911e-02   
1.0610e+03   0.0000e+00   0.0000e+00   0.0000e+00   0.0000e+00   0.0000e+00   0.0000e+00   0.0000e+00   0.0000e+00   0.0000e+00   0.0000e+00   
1.1905e+03   0.0000e+00   0.0000e+00   0.0000e+00   0.0000e+00   0.0000e+00   0.0000e+00   0.0000e+00   0.0000e+00   0.0000e+00   0.0000e+00   
1.3357e+03   0.0000e+00   0.0000e+00   0.0000e+00   0.0000e+00   0.0000e+00   0.0000e+00   0.0000e+00   0.0000e+00   0.0000e+00   0.0000e+00   
1.4987e+03   0.0000e+00   0.0000e+00   0.0000e+00   0.0000e+00   0.0000e+00   0.0000e+00   0.0000e+00   0.0000e+00   0.0000e+00   0.0000e+00   
1.6816e+03   0.0000e+00   0.0000e+00   0.0000e+00   0.0000e+00   0.0000e+00   0.0000e+00   0.0000e+00   0.0000e+00   0.0000e+00   0.0000e+00   
1.8868e+03   0.0000e+00   0.0000e+00   0.0000e+00   0.0000e+00   0.0000e+00   0.0000e+00   0.0000e+00   0.0000e+00   0.0000e+00   0.0000e+00   
2.1170e+03   0.0000e+00   0.0000e+00   0.0000e+00   0.0000e+00   0.0000e+00   0.0000e+00   0.0000e+00   0.0000e+00   0.0000e+00   0.0000e+00   
2.3753e+03   0.0000e+00   0.0000e+00   0.0000e+00   0.0000e+00   0.0000e+00   0.0000e+00   0.0000e+00   0.0000e+00   0.0000e+00   0.0000e+00   
2.6651e+03   0.0000e+00   0.0000e+00   0.0000e+00   0.0000e+00   0.0000e+00   0.0000e+00   0.0000e+00   0.0000e+00   0.0000e+00   0.0000e+00   
2.9903e+03   0.0000e+00   0.0000e+00   0.0000e+00   0.0000e+00   0.0000e+00   0.0000e+00   0.0000e+00   0.0000e+00   0.0000e+00   0.0000e+00   
3.3552e+03   0.0000e+00   0.0000e+00   0.0000e+00   0.0000e+00   0.0000e+00   0.0000e+00   0.0000e+00   0.0000e+00   0.0000e+00   0.0000e+00   
3.7646e+03   0.0000e+00   0.0000e+00   0.0000e+00   0.0000e+00   0.0000e+00   0.0000e+00   0.0000e+00   0.0000e+00   0.0000e+00   0.0000e+00   
4.2240e+03   0.0000e+00   0.0000e+00   0.0000e+00   0.0000e+00   0.0000e+00   0.0000e+00   0.0000e+00   0.0000e+00   0.0000e+00   0.0000e+00   
4.7394e+03   0.0000e+00   0.0000e+00   0.0000e+00   0.0000e+00   0.0000e+00   0.0000e+00   0.0000e+00   0.0000e+00   0.0000e+00   0.0000e+00   
5.3176e+03   0.0000e+00   0.0000e+00   0.0000e+00   0.0000e+00   0.0000e+00   0.0000e+00   0.0000e+00   0.0000e+00   0.0000e+00   0.0000e+00   
5.9665e+03   0.0000e+00   0.0000e+00   0.0000e+00   0.0000e+00   0.0000e+00   0.0000e+00   0.0000e+00   0.0000e+00   0.0000e+00   0.0000e+00   
6.6945e+03   0.0000e+00   0.0000e+00   0.0000e+00   0.0000e+00   0.0000e+00   0.0000e+00   0.0000e+00   0.0000e+00   0.0000e+00   0.0000e+00   
7.5114e+03   0.0000e+00   0.0000e+00   0.0000e+00   0.0000e+00   0.0000e+00   0.0000e+00   0.0000e+00   0.0000e+00   0.0000e+00   0.0000e+00   
8.4279e+03   0.0000e+00   0.0000e+00   0.0000e+00   0.0000e+00   0.0000e+00   0.0000e+00   0.0000e+00   0.0000e+00   0.0000e+00   0.0000e+00   
9.4563e+03   0.0000e+00   0.0000e+00   0.0000e+00   0.0000e+00   0.0000e+00   0.0000e+00   0.0000e+00   0.0000e+00   0.0000e+00   0.0000e+00   
